angle,qangle,error
-90.000, -90.006, -6.12e-03
-89.972, -89.939, 03.34e-02
-89.916, -89.911, 05.41e-03
-89.893, -89.871, 02.19e-02
-89.860, -89.843, 01.70e-02
-89.814, -89.804, 01.05e-02
-89.804, -89.776, 02.85e-02
-89.748, -89.747, 05.16e-04
-89.734, -89.708, 02.60e-02
-89.692, -89.680, 01.20e-02
-89.655, -89.641, 01.45e-02
-89.636, -89.612, 02.36e-02
-89.581, -89.584, -3.37e-03
-89.576, -89.545, 03.10e-02
-89.525, -89.517, 08.14e-03
-89.496, -89.477, 01.85e-02
-89.469, -89.449, 01.96e-02
-89.417, -89.410, 07.00e-03
-89.413, -89.382, 03.11e-02
-89.358, -89.354, 04.25e-03
-89.337, -89.314, 02.26e-02
-89.302, -89.286, 01.57e-02
-89.258, -89.247, 01.10e-02
-89.247, -89.219, 02.82e-02
-89.191, -89.191, 03.73e-04
-89.178, -89.151, 02.67e-02
-89.135, -89.123, 01.18e-02
-89.098, -89.084, 01.41e-02
-89.080, -89.056, 02.43e-02
-89.024, -89.027, -3.49e-03
-89.018, -88.988, 02.97e-02
-88.969, -88.960, 08.96e-03
-88.939, -88.921, 01.82e-02
-88.914, -88.893, 02.14e-02
-88.859, -88.853, 05.56e-03
-88.858, -88.825, 03.28e-02
-88.803, -88.797, 06.08e-03
-88.779, -88.758, 02.12e-02
-88.747, -88.729, 01.75e-02
-88.699, -88.690, 08.62e-03
-88.692, -88.662, 02.99e-02
-88.637, -88.634, 03.22e-03
-88.619, -88.595, 02.43e-02
-88.581, -88.566, 01.46e-02
-88.538, -88.527, 01.07e-02
-88.526, -88.499, 02.70e-02
-88.471, -88.471, 03.62e-04
-88.458, -88.432, 02.64e-02
-88.416, -88.403, 01.28e-02
-88.378, -88.364, 01.38e-02
-88.361, -88.336, 02.51e-02
-88.305, -88.307, -2.49e-03
-88.298, -88.269, 02.95e-02
-88.250, -88.240, 09.89e-03
-88.217, -88.201, 01.58e-02
-88.195, -88.173, 02.22e-02
-88.140, -88.144, -4.33e-03
-88.137, -88.105, 03.16e-02
-88.085, -88.077, 08.03e-03
-88.057, -88.038, 01.89e-02
-88.030, -88.010, 02.04e-02
-87.976, -87.971, 05.23e-03
-87.975, -87.942, 03.27e-02
-87.920, -87.914, 06.17e-03
-87.895, -87.875, 02.00e-02
-87.865, -87.847, 01.85e-02
-87.815, -87.808, 07.30e-03
-87.810, -87.779, 03.08e-02
-87.755, -87.751, 04.33e-03
-87.734, -87.712, 02.21e-02
-87.700, -87.683, 01.66e-02
-87.653, -87.645, 08.38e-03
-87.646, -87.616, 02.99e-02
-87.591, -87.588, 03.48e-03
-87.572, -87.549, 02.32e-02
-87.536, -87.520, 01.58e-02
-87.492, -87.482, 01.05e-02
-87.481, -87.453, 02.80e-02
-87.426, -87.424, 01.64e-03
-87.411, -87.386, 02.53e-02
-87.372, -87.357, 01.49e-02
-87.330, -87.318, 01.15e-02
-87.317, -87.290, 02.72e-02
-87.262, -87.261, 08.08e-04
-87.248, -87.223, 02.54e-02
-87.208, -87.194, 01.41e-02
-87.167, -87.155, 01.16e-02
-87.153, -87.127, 02.63e-02
-87.098, -87.098, -2.52e-05
-87.086, -87.059, 02.65e-02
-87.044, -87.031, 01.32e-02
-87.005, -86.992, 01.27e-02
-86.989, -86.964, 02.54e-02
-86.935, -86.935, 01.43e-04
-86.924, -86.896, 02.76e-02
-86.880, -86.868, 01.24e-02
-86.842, -86.829, 01.28e-02
-86.826, -86.800, 02.56e-02
-86.771, -86.772, -6.87e-04
-86.761, -86.733, 02.77e-02
-86.717, -86.704, 01.25e-02
-86.679, -86.666, 01.29e-02
-86.662, -86.637, 02.47e-02
-86.608, -86.609, -5.17e-04
-86.598, -86.570, 02.79e-02
-86.554, -86.541, 01.27e-02
-86.516, -86.503, 01.30e-02
-86.499, -86.474, 02.48e-02
-86.445, -86.445, -3.47e-04
-86.434, -86.407, 02.70e-02
-86.391, -86.378, 01.28e-02
-86.353, -86.340, 01.31e-02
-86.337, -86.311, 02.60e-02
-86.282, -86.282, -1.77e-04
-86.271, -86.244, 02.71e-02
-86.228, -86.215, 01.30e-02
-86.189, -86.177, 01.22e-02
-86.174, -86.148, 02.61e-02
-86.120, -86.119, 09.91e-04
-86.107, -86.081, 02.62e-02
-86.066, -86.052, 01.41e-02
-86.025, -86.014, 01.13e-02
-86.011, -85.985, 02.62e-02
-85.957, -85.956, 01.16e-03
-85.943, -85.918, 02.53e-02
-85.903, -85.889, 01.43e-02
-85.861, -85.851, 01.04e-02
-85.849, -85.822, 02.73e-02
-85.795, -85.793, 02.32e-03
-85.779, -85.755, 02.44e-02
-85.741, -85.726, 01.54e-02
-85.697, -85.688, 09.45e-03
-85.687, -85.659, 02.85e-02
-85.633, -85.630, 03.48e-03
-85.614, -85.591, 02.25e-02
-85.579, -85.562, 01.65e-02
-85.532, -85.524, 07.53e-03
-85.526, -85.495, 03.06e-02
-85.472, -85.466, 05.64e-03
-85.449, -85.428, 02.06e-02
-85.418, -85.399, 01.87e-02
-85.367, -85.361, 05.60e-03
-85.364, -85.332, 03.17e-02
-85.310, -85.303, 06.79e-03
-85.284, -85.265, 01.87e-02
-85.256, -85.236, 01.98e-02
-85.203, -85.207, -4.08e-03
-85.202, -85.169, 03.28e-02
-85.149, -85.140, 08.93e-03
-85.119, -85.102, 01.68e-02
-85.095, -85.073, 02.19e-02
-85.041, -85.044, -2.91e-03
-85.036, -85.006, 02.99e-02
-84.988, -84.977, 01.11e-02
-84.953, -84.939, 01.39e-02
-84.934, -84.910, 02.40e-02
-84.881, -84.881, 02.41e-04
-84.871, -84.843, 02.80e-02
-84.827, -84.814, 01.32e-02
-84.788, -84.776, 01.19e-02
-84.773, -84.747, 02.62e-02
-84.720, -84.718, 02.39e-03
-84.705, -84.680, 02.51e-02
-84.666, -84.651, 01.53e-02
-84.621, -84.613, 08.00e-03
-84.613, -84.584, 02.93e-02
-84.559, -84.554, 04.53e-03
-84.538, -84.517, 02.12e-02
-84.506, -84.488, 01.84e-02
-84.455, -84.450, 05.05e-03
-84.452, -84.421, 03.14e-02
-84.399, -84.391, 07.66e-03
-84.372, -84.354, 01.82e-02
-84.346, -84.324, 02.16e-02
-84.292, -84.295, -3.11e-03
-84.288, -84.258, 03.04e-02
-84.239, -84.228, 01.08e-02
-84.205, -84.191, 01.43e-02
-84.185, -84.161, 02.37e-02
-84.132, -84.132, 02.96e-05
-84.122, -84.094, 02.75e-02
-84.079, -84.065, 01.39e-02
-84.038, -84.028, 01.04e-02
-84.026, -83.998, 02.77e-02
-83.972, -83.969, 03.16e-03
-83.954, -83.931, 02.26e-02
-83.919, -83.902, 01.70e-02
-83.871, -83.865, 06.39e-03
-83.866, -83.835, 03.08e-02
-83.813, -83.806, 07.27e-03
-83.787, -83.768, 01.86e-02
-83.760, -83.739, 02.11e-02
-83.707, -83.709, -2.44e-03
-83.703, -83.672, 03.09e-02
-83.653, -83.643, 01.04e-02
-83.619, -83.605, 01.37e-02
-83.600, -83.576, 02.42e-02
-83.547, -83.546, 06.79e-04
-83.535, -83.509, 02.59e-02
-83.494, -83.480, 01.45e-02
-83.451, -83.442, 08.71e-03
-83.441, -83.413, 02.82e-02
-83.388, -83.383, 04.78e-03
-83.367, -83.346, 02.10e-02
-83.335, -83.316, 01.85e-02
-83.283, -83.279, 03.73e-03
-83.282, -83.250, 03.23e-02
-83.229, -83.220, 08.87e-03
-83.199, -83.183, 01.60e-02
-83.176, -83.153, 02.26e-02
-83.124, -83.124, 02.18e-04
-83.114, -83.087, 02.73e-02
-83.071, -83.057, 01.40e-02
-83.030, -83.020, 01.00e-02
-83.018, -82.990, 02.77e-02
-82.965, -82.961, 04.31e-03
-82.946, -82.924, 02.24e-02
-82.912, -82.894, 01.80e-02
-82.861, -82.857, 04.04e-03
-82.859, -82.827, 03.17e-02
-82.807, -82.798, 09.38e-03
-82.776, -82.761, 01.54e-02
-82.754, -82.731, 02.31e-02
-82.701, -82.701, -2.38e-04
-82.692, -82.664, 02.77e-02
-82.649, -82.635, 01.44e-02
-82.607, -82.598, 09.37e-03
-82.596, -82.568, 02.81e-02
-82.543, -82.538, 04.83e-03
-82.522, -82.501, 02.07e-02
-82.491, -82.472, 01.95e-02
-82.438, -82.442, -3.76e-03
-82.437, -82.405, 03.21e-02
-82.385, -82.375, 09.88e-03
-82.352, -82.338, 01.37e-02
-82.333, -82.308, 02.45e-02
-82.280, -82.279, 01.30e-03
-82.267, -82.242, 02.51e-02
-82.228, -82.212, 01.59e-02
-82.182, -82.175, 06.69e-03
-82.175, -82.145, 02.95e-02
-82.123, -82.116, 07.34e-03
-82.097, -82.079, 01.81e-02
-82.070, -82.049, 02.09e-02
-82.018, -82.019, -1.21e-03
-82.012, -81.983, 02.95e-02
-81.965, -81.953, 01.24e-02
-81.927, -81.916, 01.10e-02
-81.913, -81.886, 02.69e-02
-81.861, -81.856, 04.82e-03
-81.841, -81.820, 02.15e-02
-81.808, -81.790, 01.84e-02
-81.756, -81.723, 03.29e-02
-81.704, -81.693, 01.08e-02
-81.670, -81.657, 01.34e-02
-81.651, -81.627, 02.44e-02
-81.599, -81.597, 02.31e-03
-81.585, -81.560, 02.49e-02
-81.547, -81.530, 01.68e-02
-81.499, -81.494, 05.35e-03
-81.495, -81.464, 03.13e-02
-81.442, -81.434, 08.31e-03
-81.413, -81.397, 01.58e-02
-81.390, -81.367, 02.28e-02
-81.338, -81.337, 08.07e-04
-81.327, -81.301, 02.63e-02
-81.286, -81.271, 01.53e-02
-81.241, -81.234, 06.72e-03
-81.234, -81.204, 02.97e-02
-81.182, -81.174, 07.79e-03
-81.155, -81.138, 01.72e-02
-81.130, -81.108, 02.22e-02
-81.077, -81.078, -6.86e-04
-81.069, -81.041, 02.77e-02
-81.025, -81.011, 01.38e-02
-80.983, -80.975, 08.09e-03
-80.973, -80.945, 02.82e-02
-80.921, -80.915, 06.28e-03
-80.897, -80.878, 01.86e-02
-80.869, -80.848, 02.07e-02
-80.817, -80.818, -1.18e-03
-80.811, -80.782, 02.91e-02
-80.765, -80.752, 01.32e-02
-80.724, -80.716, 08.47e-03
-80.714, -80.685, 02.86e-02
-80.662, -80.655, 06.78e-03
-80.638, -80.619, 01.90e-02
-80.610, -80.589, 02.12e-02
-80.558, -80.559, -6.62e-04
-80.551, -80.522, 02.85e-02
-80.506, -80.492, 01.37e-02
-80.465, -80.456, 08.84e-03
-80.454, -80.426, 02.81e-02
-80.402, -80.396, 06.27e-03
-80.378, -80.360, 01.84e-02
-80.351, -80.329, 02.16e-02
-80.299, -80.299, -1.50e-04
-80.291, -80.263, 02.79e-02
-80.247, -80.233, 01.42e-02
-80.205, -80.197, 08.22e-03
-80.195, -80.167, 02.85e-02
-80.144, -80.136, 07.76e-03
-80.118, -80.100, 01.78e-02
-80.092, -80.070, 02.21e-02
-80.040, -80.040, 03.59e-04
-80.031, -80.004, 02.73e-02
-79.989, -79.973, 01.56e-02
-79.944, -79.937, 06.59e-03
-79.937, -79.907, 02.99e-02
-79.885, -79.877, 08.25e-03
-79.857, -79.841, 01.62e-02
-79.834, -79.810, 02.35e-02
-79.782, -79.780, 01.86e-03
-79.769, -79.744, 02.47e-02
-79.731, -79.714, 01.71e-02
-79.682, -79.678, 03.96e-03
-79.679, -79.648, 03.13e-02
-79.628, -79.617, 01.07e-02
-79.595, -79.581, 01.35e-02
-79.576, -79.551, 02.49e-02
-79.525, -79.521, 04.36e-03
-79.507, -79.485, 02.21e-02
-79.473, -79.454, 01.86e-02
-79.422, -79.424, -2.00e-03
-79.420, -79.388, 03.17e-02
-79.370, -79.358, 01.22e-02
-79.332, -79.322, 09.91e-03
-79.319, -79.292, 02.74e-02
-79.267, -79.261, 05.84e-03
-79.244, -79.225, 01.85e-02
-79.216, -79.195, 02.10e-02
-79.165, -79.165, 04.96e-04
-79.157, -79.129, 02.81e-02
-79.113, -79.098, 01.46e-02
-79.069, -79.063, 06.27e-03
-79.062, -79.032, 02.98e-02
-79.011, -79.002, 09.31e-03
-78.981, -78.966, 01.49e-02
-78.960, -78.936, 02.44e-02
-78.908, -78.905, 02.98e-03
-78.893, -78.869, 02.35e-02
-78.857, -78.839, 01.81e-02
-78.806, -78.808, -2.34e-03
-78.805, -78.773, 03.22e-02
-78.755, -78.742, 01.28e-02
-78.716, -78.707, 09.24e-03
-78.703, -78.676, 02.68e-02
-78.652, -78.646, 06.44e-03
-78.628, -78.610, 01.79e-02
-78.601, -78.579, 02.15e-02
-78.550, -78.549, 01.14e-03
-78.540, -78.513, 02.66e-02
-78.499, -78.483, 01.62e-02
-78.451, -78.447, 03.58e-03
-78.448, -78.417, 03.12e-02
-78.397, -78.386, 01.09e-02
-78.363, -78.351, 01.22e-02
-78.346, -78.320, 02.59e-02
-78.295, -78.289, 05.59e-03
-78.274, -78.254, 01.99e-02
-78.244, -78.223, 02.06e-02
-78.193, -78.193, 03.09e-04
-78.186, -78.157, 02.86e-02
-78.142, -78.127, 01.53e-02
-78.097, -78.091, 05.56e-03
-78.091, -78.061, 03.03e-02
-78.040, -78.030, 01.00e-02
-78.008, -77.995, 01.32e-02
-77.989, -77.964, 02.50e-02
-77.938, -77.933, 04.75e-03
-77.919, -77.898, 02.09e-02
-77.887, -77.867, 01.97e-02
-77.836, -77.837, -5.13e-04
-77.830, -77.801, 02.86e-02
-77.786, -77.771, 01.54e-02
-77.741, -77.735, 05.54e-03
-77.735, -77.705, 03.03e-02
-77.684, -77.674, 01.02e-02
-77.652, -77.639, 01.32e-02
-77.633, -77.608, 02.51e-02
-77.582, -77.577, 04.91e-03
-77.562, -77.542, 02.00e-02
-77.532, -77.511, 02.08e-02
-77.481, -77.480, 06.64e-04
-77.473, -77.445, 02.77e-02
-77.430, -77.414, 01.55e-02
-77.384, -77.379, 04.53e-03
-77.379, -77.349, 03.04e-02
-77.329, -77.318, 01.13e-02
-77.294, -77.283, 01.12e-02
-77.278, -77.252, 02.61e-02
-77.227, -77.221, 06.06e-03
-77.204, -77.186, 01.80e-02
-77.177, -77.155, 02.19e-02
-77.126, -77.124, 01.83e-03
-77.115, -77.089, 02.57e-02
-77.076, -77.058, 01.77e-02
-77.025, -76.993, 03.25e-02
-76.974, -76.962, 01.24e-02
-76.935, -76.927, 08.23e-03
-76.924, -76.896, 02.82e-02
-76.873, -76.865, 08.20e-03
-76.845, -76.830, 01.50e-02
-76.823, -76.799, 02.40e-02
-76.772, -76.768, 03.99e-03
-76.755, -76.733, 02.17e-02
-76.722, -76.702, 01.97e-02
-76.672, -76.671, 07.84e-04
-76.665, -76.637, 02.85e-02
-76.621, -76.605, 01.55e-02
-76.574, -76.571, 03.20e-03
-76.571, -76.540, 03.13e-02
-76.520, -76.509, 01.13e-02
-76.484, -76.474, 09.96e-03
-76.470, -76.443, 02.70e-02
-76.420, -76.412, 08.12e-03
-76.394, -76.377, 01.67e-02
-76.369, -76.346, 02.28e-02
-76.319, -76.315, 03.93e-03
-76.303, -76.281, 02.25e-02
-76.269, -76.249, 01.96e-02
-76.218, -76.218, -2.54e-04
-76.212, -76.184, 02.83e-02
-76.168, -76.153, 01.54e-02
-76.122, -76.118, 03.91e-03
-76.118, -76.087, 03.11e-02
-76.067, -76.056, 01.12e-02
-76.031, -76.021, 09.69e-03
-76.017, -75.990, 02.69e-02
-75.967, -75.959, 08.04e-03
-75.940, -75.925, 01.55e-02
-75.917, -75.893, 02.37e-02
-75.867, -75.862, 04.87e-03
-75.849, -75.828, 02.13e-02
-75.817, -75.797, 02.05e-02
-75.766, -75.765, 07.04e-04
-75.758, -75.731, 02.71e-02
-75.716, -75.700, 01.63e-02
-75.667, -75.665, 01.62e-03
-75.666, -75.634, 03.19e-02
-75.616, -75.603, 01.31e-02
-75.576, -75.569, 07.41e-03
-75.566, -75.537, 02.87e-02
-75.516, -75.506, 09.96e-03
-75.484, -75.472, 01.22e-02
-75.466, -75.441, 02.55e-02
-75.416, -75.409, 06.80e-03
-75.393, -75.375, 01.80e-02
-75.366, -75.344, 02.23e-02
-75.316, -75.312, 03.65e-03
-75.301, -75.278, 02.28e-02
-75.266, -75.247, 01.92e-02
-75.216, -75.215, 05.01e-04
-75.210, -75.181, 02.86e-02
-75.166, -75.150, 01.60e-02
-75.118, -75.116, 02.11e-03
-75.116, -75.085, 03.15e-02
-75.066, -75.053, 01.28e-02
-75.026, -75.019, 06.92e-03
-75.016, -74.988, 02.83e-02
-74.967, -74.956, 01.07e-02
-74.934, -74.922, 01.17e-02
-74.917, -74.891, 02.61e-02
-74.867, -74.859, 07.56e-03
-74.842, -74.825, 01.66e-02
-74.817, -74.794, 02.30e-02
-74.767, -74.763, 04.42e-03
-74.750, -74.729, 02.14e-02
-74.717, -74.697, 01.98e-02
-74.668, -74.666, 02.29e-03
-74.658, -74.632, 02.62e-02
-74.618, -74.600, 01.77e-02
-74.568, -74.569, -8.28e-04
-74.565, -74.535, 03.01e-02
-74.518, -74.503, 01.46e-02
-74.473, -74.470, 03.41e-03
-74.469, -74.438, 03.09e-02
-74.419, -74.407, 01.24e-02
-74.380, -74.373, 07.24e-03
-74.369, -74.341, 02.78e-02
-74.320, -74.310, 01.03e-02
-74.288, -74.276, 01.21e-02
-74.270, -74.244, 02.56e-02
-74.220, -74.213, 07.17e-03
-74.195, -74.179, 01.59e-02
-74.171, -74.148, 02.35e-02
-74.121, -74.116, 05.06e-03
-74.102, -74.082, 01.98e-02
-74.072, -74.051, 02.14e-02
-74.022, -74.019, 02.95e-03
-74.009, -73.985, 02.36e-02
-73.973, -73.954, 01.92e-02
-73.923, -73.922, 08.43e-04
-73.916, -73.889, 02.75e-02
-73.874, -73.857, 01.71e-02
-73.824, -73.825, -1.26e-03
-73.823, -73.792, 03.13e-02
-73.775, -73.760, 01.50e-02
-73.730, -73.726, 03.56e-03
-73.725, -73.695, 03.02e-02
-73.676, -73.663, 01.29e-02
-73.637, -73.630, 07.41e-03
-73.626, -73.598, 02.81e-02
-73.577, -73.566, 01.08e-02
-73.543, -73.533, 01.03e-02
-73.527, -73.501, 02.60e-02
-73.478, -73.469, 08.67e-03
-73.450, -73.436, 01.41e-02
-73.429, -73.404, 02.48e-02
-73.379, -73.372, 06.57e-03
-73.356, -73.339, 01.70e-02
-73.330, -73.307, 02.27e-02
-73.281, -73.276, 05.47e-03
-73.262, -73.242, 01.99e-02
-73.231, -73.210, 02.06e-02
-73.182, -73.179, 03.38e-03
-73.169, -73.145, 02.37e-02
-73.133, -73.113, 01.95e-02
-73.084, -73.082, 02.29e-03
-73.075, -73.048, 02.66e-02
-73.034, -73.017, 01.74e-02
-72.985, -72.985, 02.09e-04
-72.981, -72.952, 02.95e-02
-72.936, -72.920, 01.63e-02
-72.887, -72.888, -8.71e-04
-72.886, -72.855, 03.14e-02
-72.838, -72.823, 01.52e-02
-72.792, -72.790, 02.40e-03
-72.788, -72.758, 03.02e-02
-72.739, -72.726, 01.31e-02
-72.698, -72.693, 05.27e-03
-72.690, -72.661, 02.91e-02
-72.641, -72.629, 01.20e-02
-72.603, -72.596, 07.14e-03
-72.592, -72.564, 02.80e-02
-72.543, -72.532, 01.09e-02
-72.509, -72.499, 01.00e-02
-72.494, -72.467, 02.69e-02
-72.445, -72.435, 09.84e-03
-72.414, -72.402, 01.19e-02
-72.396, -72.370, 02.58e-02
-72.347, -72.338, 08.76e-03
-72.319, -72.305, 01.38e-02
-72.298, -72.273, 02.47e-02
-72.249, -72.241, 07.68e-03
-72.224, -72.208, 01.57e-02
-72.200, -72.176, 02.36e-02
-72.151, -72.144, 06.61e-03
-72.130, -72.111, 01.85e-02
-72.102, -72.079, 02.25e-02
-72.053, -72.047, 05.53e-03
-72.034, -72.015, 01.94e-02
-72.004, -71.983, 02.14e-02
-71.955, -71.951, 04.46e-03
-71.939, -71.918, 02.13e-02
-71.906, -71.886, 02.03e-02
-71.857, -71.854, 03.39e-03
-71.844, -71.821, 02.32e-02
-71.808, -71.789, 01.93e-02
-71.760, -71.757, 03.32e-03
-71.748, -71.724, 02.41e-02
-71.711, -71.692, 01.92e-02
-71.662, -71.660, 02.25e-03
-71.653, -71.627, 02.60e-02
-71.613, -71.595, 01.81e-02
-71.564, -71.563, 01.19e-03
-71.557, -71.530, 02.69e-02
-71.516, -71.498, 01.80e-02
-71.467, -71.466, 01.12e-03
-71.462, -71.433, 02.88e-02
-71.418, -71.401, 01.69e-02
-71.369, -71.369, 06.01e-05
-71.366, -71.336, 02.97e-02
-71.321, -71.304, 01.68e-02
-71.272, -71.272, -1.16e-06
-71.270, -71.239, 03.06e-02
-71.223, -71.207, 01.58e-02
-71.175, -71.175, -6.14e-05
-71.174, -71.143, 03.15e-02
-71.126, -71.110, 01.57e-02
-71.077, -71.046, 03.14e-02
-71.029, -71.013, 01.56e-02
-70.981, -70.981, 09.12e-05
-70.980, -70.949, 03.13e-02
-70.932, -70.916, 01.55e-02
-70.885, -70.884, 09.75e-04
-70.883, -70.852, 03.12e-02
-70.835, -70.820, 01.54e-02
-70.788, -70.787, 08.60e-04
-70.786, -70.755, 03.11e-02
-70.738, -70.723, 01.54e-02
-70.691, -70.690, 07.45e-04
-70.689, -70.658, 03.10e-02
-70.640, -70.626, 01.43e-02
-70.595, -70.593, 01.63e-03
-70.592, -70.561, 03.09e-02
-70.544, -70.529, 01.52e-02
-70.498, -70.496, 01.52e-03
-70.495, -70.464, 03.08e-02
-70.447, -70.432, 01.51e-02
-70.401, -70.400, 01.40e-03
-70.398, -70.367, 03.07e-02
-70.350, -70.335, 01.51e-02
-70.304, -70.303, 01.29e-03
-70.301, -70.270, 03.06e-02
-70.253, -70.238, 01.50e-02
-70.206, -70.206, 01.71e-04
-70.205, -70.173, 03.15e-02
-70.156, -70.141, 01.49e-02
-70.109, -70.109, 05.54e-05
-70.108, -70.077, 03.14e-02
-70.060, -70.044, 01.58e-02
-70.012, -70.012, -6.09e-05
-70.011, -69.980, 03.13e-02
-69.963, -69.947, 01.58e-02
-69.915, -69.915, 01.89e-04
-69.914, -69.883, 03.12e-02
-69.866, -69.850, 01.57e-02
-69.818, -69.818, 01.29e-04
-69.816, -69.786, 03.01e-02
-69.770, -69.753, 01.66e-02
-69.722, -69.721, 01.07e-03
-69.718, -69.689, 02.90e-02
-69.674, -69.656, 01.75e-02
-69.625, -69.624, 01.01e-03
-69.620, -69.592, 02.79e-02
-69.577, -69.560, 01.74e-02
-69.529, -69.527, 01.94e-03
-69.522, -69.495, 02.68e-02
-69.481, -69.463, 01.84e-02
-69.433, -69.430, 02.88e-03
-69.424, -69.398, 02.57e-02
-69.385, -69.366, 01.93e-02
-69.336, -69.333, 02.81e-03
-69.326, -69.301, 02.46e-02
-69.288, -69.269, 01.92e-02
-69.240, -69.236, 03.74e-03
-69.227, -69.204, 02.25e-02
-69.192, -69.172, 02.01e-02
-69.144, -69.139, 04.67e-03
-69.129, -69.108, 02.14e-02
-69.096, -69.075, 02.10e-02
-69.048, -69.042, 05.60e-03
-69.030, -69.011, 01.93e-02
-69.000, -68.978, 02.19e-02
-68.952, -68.945, 06.53e-03
-68.931, -68.914, 01.72e-02
-68.904, -68.881, 02.28e-02
-68.856, -68.849, 07.45e-03
-68.832, -68.817, 01.51e-02
-68.808, -68.784, 02.37e-02
-68.760, -68.752, 08.37e-03
-68.733, -68.720, 01.30e-02
-68.712, -68.687, 02.46e-02
-68.664, -68.655, 09.29e-03
-68.634, -68.623, 01.08e-02
-68.616, -68.590, 02.55e-02
-68.569, -68.558, 01.12e-02
-68.535, -68.526, 08.71e-03
-68.521, -68.494, 02.74e-02
-68.473, -68.461, 01.21e-02
-68.435, -68.429, 05.59e-03
-68.425, -68.397, 02.83e-02
-68.377, -68.364, 01.30e-02
-68.336, -68.333, 03.46e-03
-68.329, -68.300, 02.92e-02
-68.282, -68.267, 01.49e-02
-68.236, -68.236, 03.25e-04
-68.234, -68.203, 03.11e-02
-68.186, -68.170, 01.58e-02
-68.138, -68.137, 06.19e-04
-68.136, -68.106, 03.00e-02
-68.090, -68.073, 01.67e-02
-68.043, -68.040, 02.54e-03
-68.036, -68.009, 02.68e-02
-67.995, -67.976, 01.86e-02
-67.947, -67.944, 03.45e-03
-67.936, -67.912, 02.37e-02
-67.900, -67.879, 02.05e-02
-67.852, -67.847, 05.36e-03
-67.836, -67.815, 02.06e-02
-67.804, -67.783, 02.14e-02
-67.756, -67.750, 06.27e-03
-67.736, -67.719, 01.75e-02
-67.709, -67.686, 02.33e-02
-67.661, -67.653, 08.18e-03
-67.635, -67.622, 01.33e-02
-67.614, -67.589, 02.52e-02
-67.566, -67.556, 01.01e-02
-67.535, -67.525, 01.02e-02
-67.518, -67.492, 02.61e-02
-67.471, -67.459, 01.20e-02
-67.434, -67.428, 06.03e-03
-67.423, -67.395, 02.79e-02
-67.376, -67.362, 01.39e-02
-67.333, -67.331, 01.88e-03
-67.328, -67.298, 02.98e-02
-67.281, -67.265, 01.57e-02
-67.233, -67.232, 06.99e-04
-67.232, -67.201, 03.07e-02
-67.186, -67.168, 01.76e-02
-67.138, -67.135, 02.60e-03
-67.131, -67.104, 02.65e-02
-67.091, -67.071, 01.95e-02
-67.043, -67.039, 04.49e-03
-67.030, -67.008, 02.24e-02
-66.996, -66.975, 02.14e-02
-66.948, -66.942, 06.38e-03
-66.928, -66.911, 01.72e-02
-66.901, -66.878, 02.32e-02
-66.853, -66.845, 08.27e-03
-66.827, -66.814, 01.31e-02
-66.806, -66.781, 02.51e-02
